Node Number	Directional Deformation (m)
1	0.
2	0.
3	0.
4	0.
5	7.2877e-005
6	7.6521e-004
7	2.1934e-003
8	4.397e-003
9	7.3851e-003
10	1.1154e-002
11	1.5695e-002
12	2.0994e-002
13	2.7037e-002
14	3.3808e-002
15	4.1292e-002
16	4.9473e-002
17	5.8336e-002
18	6.7866e-002
19	7.8048e-002
20	8.8866e-002
21	0.10031
22	0.11236
23	0.125
24	0.13822
25	0.15201
26	0.16635
27	0.18123
28	0.19663
29	0.21255
30	0.22896
31	0.24586
32	0.26323
33	0.28106
34	0.29934
35	0.31805
36	0.33718
37	0.35672
38	0.37665
39	0.39697
40	0.41766
41	0.43871
42	0.4601
43	0.48183
44	0.50388
45	0.52624
46	0.5489
47	0.57184
48	0.59506
49	0.61855
50	0.64229
51	0.66628
52	0.69049
53	0.71493
54	0.73958
55	0.76443
56	0.78947
57	0.81469
58	0.84008
59	0.86563
60	0.89133
61	0.91718
62	0.94316
63	0.96927
64	0.99549
65	1.0218
66	1.0483
67	1.0748
68	1.1014
69	1.1281
70	1.1548
71	1.1817
72	1.2085
73	1.2355
74	1.2625
75	1.2895
76	1.3165
77	1.3436
78	1.3707
79	1.3979
80	1.425
81	1.4522
82	1.4794
83	1.5066
84	1.5338
85	1.561
86	1.5882
87	1.6154
88	1.6426
89	0.
90	1.6698
91	0.
92	0.
93	0.
94	0.
95	0.
96	0.
97	0.
98	7.2877e-005
99	7.6521e-004
100	2.1934e-003
101	4.397e-003
102	7.3851e-003
103	1.1154e-002
104	1.5695e-002
105	2.0994e-002
106	2.7037e-002
107	3.3808e-002
108	4.1292e-002
109	4.9473e-002
110	5.8336e-002
111	6.7866e-002
112	7.8048e-002
113	8.8866e-002
114	0.10031
115	0.11236
116	0.125
117	0.13822
118	0.15201
119	0.16635
120	0.18123
121	0.19663
122	0.21255
123	0.22896
124	0.24586
125	0.26323
126	0.28106
127	0.29934
128	0.31805
129	0.33718
130	0.35672
131	0.37665
132	0.39697
133	0.41766
134	0.43871
135	0.4601
136	0.48183
137	0.50388
138	0.52624
139	0.5489
140	0.57184
141	0.59506
142	0.61855
143	0.64229
144	0.66628
145	0.69049
146	0.71493
147	0.73958
148	0.76443
149	0.78947
150	0.81469
151	0.84008
152	0.86563
153	0.89133
154	0.91718
155	0.94316
156	0.96927
157	0.99549
158	1.0218
159	1.0483
160	1.0748
161	1.1014
162	1.1281
163	1.1548
164	1.1817
165	1.2085
166	1.2355
167	1.2625
168	1.2895
169	1.3165
170	1.3436
171	1.3707
172	1.3979
173	1.425
174	1.4522
175	1.4794
176	1.5066
177	1.5338
178	1.561
179	1.5882
180	1.6154
181	1.6426
182	1.6698
183	2.5905e-004
184	1.1373e-003
185	2.7287e-003
186	5.0689e-003
187	8.1702e-003
188	1.2032e-002
189	1.6647e-002
190	2.2006e-002
191	2.8095e-002
192	3.4901e-002
193	4.2411e-002
194	5.061e-002
195	5.9484e-002
196	6.9018e-002
197	7.92e-002
198	9.0014e-002
199	0.10145
200	0.11348
201	0.12611
202	0.13932
203	0.15309
204	0.16741
205	0.18227
206	0.19765
207	0.21355
208	0.22994
209	0.24682
210	0.26417
211	0.28197
212	0.30023
213	0.31891
214	0.33802
215	0.35753
216	0.37744
217	0.39774
218	0.4184
219	0.43942
220	0.46079
221	0.4825
222	0.50452
223	0.52686
224	0.5495
225	0.57242
226	0.59562
227	0.61908
228	0.6428
229	0.66677
230	0.69096
231	0.71538
232	0.74
233	0.76483
234	0.78985
235	0.81505
236	0.84042
237	0.86596
238	0.89164
239	0.91747
240	0.94343
241	0.96952
242	0.99573
243	1.022
244	1.0485
245	1.075
246	1.1016
247	1.1282
248	1.155
249	1.1818
250	1.2087
251	1.2356
252	1.2626
253	1.2896
254	1.3166
255	1.3437
256	1.3708
257	1.3979
258	1.4251
259	1.4523
260	1.4794
261	1.5066
262	1.5338
263	1.561
264	1.5882
265	1.6154
266	1.6426
267	3.404e-004
268	1.3593e-003
269	3.0931e-003
270	5.5598e-003
271	8.7694e-003
272	1.2722e-002
273	1.7412e-002
274	2.2831e-002
275	2.8968e-002
276	3.5812e-002
277	4.3349e-002
278	5.1568e-002
279	6.0456e-002
280	6.9998e-002
281	8.0182e-002
282	9.0995e-002
283	0.10242
284	0.11445
285	0.12707
286	0.14027
287	0.15402
288	0.16833
289	0.18317
290	0.19854
291	0.21441
292	0.23079
293	0.24764
294	0.26497
295	0.28276
296	0.30099
297	0.31966
298	0.33874
299	0.35824
300	0.37813
301	0.3984
302	0.41904
303	0.44005
304	0.46139
305	0.48308
306	0.50508
307	0.5274
308	0.55002
309	0.57292
310	0.5961
311	0.61955
312	0.64325
313	0.66719
314	0.69137
315	0.71576
316	0.74037
317	0.76518
318	0.79019
319	0.81537
320	0.84072
321	0.86624
322	0.89191
323	0.91772
324	0.94367
325	0.96975
326	0.99594
327	1.0222
328	1.0486
329	1.0751
330	1.1017
331	1.1284
332	1.1551
333	1.1819
334	1.2088
335	1.2357
336	1.2627
337	1.2897
338	1.3167
339	1.3438
340	1.3709
341	1.398
342	1.4251
343	1.4523
344	1.4795
345	1.5066
346	1.5338
347	1.561
348	1.5882
349	1.6154
350	1.6426
351	3.7864e-004
352	1.4914e-003
353	3.336e-003
354	5.9103e-003
355	9.2166e-003
356	1.3253e-002
357	1.8013e-002
358	2.3489e-002
359	2.9673e-002
360	3.6553e-002
361	4.4119e-002
362	5.2359e-002
363	6.1261e-002
364	7.0812e-002
365	8.1001e-002
366	9.1815e-002
367	0.10324
368	0.11527
369	0.12788
370	0.14106
371	0.15481
372	0.1691
373	0.18393
374	0.19928
375	0.21514
376	0.2315
377	0.24834
378	0.26566
379	0.28343
380	0.30164
381	0.32029
382	0.33936
383	0.35883
384	0.37871
385	0.39896
386	0.41959
387	0.44057
388	0.4619
389	0.48357
390	0.50556
391	0.52786
392	0.55046
393	0.57334
394	0.59651
395	0.61994
396	0.64362
397	0.66755
398	0.69171
399	0.71609
400	0.74069
401	0.76548
402	0.79047
403	0.81564
404	0.84098
405	0.86648
406	0.89214
407	0.91794
408	0.94388
409	0.96994
410	0.99612
411	1.0224
412	1.0488
413	1.0753
414	1.1019
415	1.1285
416	1.1552
417	1.182
418	1.2089
419	1.2358
420	1.2627
421	1.2897
422	1.3168
423	1.3438
424	1.3709
425	1.398
426	1.4252
427	1.4523
428	1.4795
429	1.5067
430	1.5339
431	1.5611
432	1.5882
433	1.6154
434	1.6426
435	3.9939e-004
436	1.5718e-003
437	3.4966e-003
438	6.1557e-003
439	9.5423e-003
440	1.365e-002
441	1.8472e-002
442	2.4e-002
443	3.0226e-002
444	3.714e-002
445	4.4732e-002
446	5.2991e-002
447	6.1907e-002
448	7.1468e-002
449	8.1663e-002
450	9.2478e-002
451	0.1039
452	0.11593
453	0.12853
454	0.14171
455	0.15545
456	0.16973
457	0.18455
458	0.19989
459	0.21574
460	0.23209
461	0.24891
462	0.26621
463	0.28397
464	0.30217
465	0.32081
466	0.33986
467	0.35932
468	0.37918
469	0.39942
470	0.42003
471	0.441
472	0.46232
473	0.48397
474	0.50595
475	0.52823
476	0.55082
477	0.57369
478	0.59684
479	0.62026
480	0.64393
481	0.66784
482	0.69199
483	0.71636
484	0.74094
485	0.76573
486	0.7907
487	0.81586
488	0.84119
489	0.86668
490	0.89233
491	0.91812
492	0.94404
493	0.97009
494	0.99627
495	1.0225
496	1.0489
497	1.0754
498	1.102
499	1.1286
500	1.1553
501	1.1821
502	1.209
503	1.2359
504	1.2628
505	1.2898
506	1.3168
507	1.3439
508	1.371
509	1.3981
510	1.4252
511	1.4524
512	1.4795
513	1.5067
514	1.5339
515	1.5611
516	1.5883
517	1.6155
518	1.6427
519	4.1148e-004
520	1.6215e-003
521	3.6015e-003
522	6.3229e-003
523	9.7715e-003
524	1.3936e-002
525	1.8808e-002
526	2.4379e-002
527	3.064e-002
528	3.7582e-002
529	4.5197e-002
530	5.3474e-002
531	6.2402e-002
532	7.1972e-002
533	8.2171e-002
534	9.299e-002
535	0.10441
536	0.11644
537	0.12904
538	0.14221
539	0.15594
540	0.17022
541	0.18503
542	0.20036
543	0.2162
544	0.23254
545	0.24936
546	0.26665
547	0.28439
548	0.30258
549	0.32121
550	0.34025
551	0.3597
552	0.37955
553	0.39978
554	0.42038
555	0.44134
556	0.46264
557	0.48429
558	0.50625
559	0.52852
560	0.5511
561	0.57396
562	0.5971
563	0.62051
564	0.64417
565	0.66807
566	0.69221
567	0.71657
568	0.74115
569	0.76592
570	0.79089
571	0.81603
572	0.84135
573	0.86684
574	0.89247
575	0.91826
576	0.94417
577	0.97022
578	0.99638
579	1.0227
580	1.049
581	1.0755
582	1.1021
583	1.1287
584	1.1554
585	1.1822
586	1.209
587	1.2359
588	1.2629
589	1.2898
590	1.3169
591	1.3439
592	1.371
593	1.3981
594	1.4252
595	1.4524
596	1.4796
597	1.5067
598	1.5339
599	1.5611
600	1.5883
601	1.6155
602	1.6427
603	4.1856e-004
604	1.6516e-003
605	3.6671e-003
606	6.4307e-003
607	9.9227e-003
608	1.4128e-002
609	1.9037e-002
610	2.4639e-002
611	3.0927e-002
612	3.7891e-002
613	4.5523e-002
614	5.3813e-002
615	6.2751e-002
616	7.2328e-002
617	8.2532e-002
618	9.3352e-002
619	0.10478
620	0.1168
621	0.1294
622	0.14257
623	0.1563
624	0.17057
625	0.18537
626	0.2007
627	0.21653
628	0.23286
629	0.24967
630	0.26696
631	0.28469
632	0.30288
633	0.32149
634	0.34053
635	0.35997
636	0.37981
637	0.40003
638	0.42063
639	0.44158
640	0.46288
641	0.48451
642	0.50647
643	0.52873
644	0.5513
645	0.57416
646	0.59729
647	0.62069
648	0.64434
649	0.66824
650	0.69237
651	0.71672
652	0.74129
653	0.76606
654	0.79102
655	0.81616
656	0.84147
657	0.86695
658	0.89258
659	0.91836
660	0.94427
661	0.9703
662	0.99646
663	1.0227
664	1.0491
665	1.0756
666	1.1021
667	1.1288
668	1.1555
669	1.1822
670	1.2091
671	1.236
672	1.2629
673	1.2899
674	1.3169
675	1.3439
676	1.371
677	1.3981
678	1.4253
679	1.4524
680	1.4796
681	1.5067
682	1.5339
683	1.5611
684	1.5883
685	1.6155
686	1.6427
687	4.2232e-004
688	1.6678e-003
689	3.7032e-003
690	6.491e-003
691	1.0009e-002
692	1.4239e-002
693	1.917e-002
694	2.4792e-002
695	3.1096e-002
696	3.8073e-002
697	4.5716e-002
698	5.4014e-002
699	6.2959e-002
700	7.254e-002
701	8.2747e-002
702	9.3569e-002
703	0.105
704	0.11701
705	0.12961
706	0.14278
707	0.15651
708	0.17078
709	0.18558
710	0.2009
711	0.21673
712	0.23306
713	0.24986
714	0.26714
715	0.28487
716	0.30305
717	0.32167
718	0.3407
719	0.36014
720	0.37997
721	0.40019
722	0.42078
723	0.44172
724	0.46302
725	0.48464
726	0.5066
727	0.52886
728	0.55142
729	0.57427
730	0.5974
731	0.6208
732	0.64444
733	0.66834
734	0.69246
735	0.71681
736	0.74137
737	0.76614
738	0.79109
739	0.81623
740	0.84154
741	0.86702
742	0.89264
743	0.91841
744	0.94432
745	0.97036
746	0.99651
747	1.0228
748	1.0491
749	1.0756
750	1.1022
751	1.1288
752	1.1555
753	1.1823
754	1.2091
755	1.236
756	1.2629
757	1.2899
758	1.3169
759	1.344
760	1.371
761	1.3982
762	1.4253
763	1.4524
764	1.4796
765	1.5067
766	1.5339
767	1.5611
768	1.5883
769	1.6155
770	1.6427
771	4.235e-004
772	1.673e-003
773	3.7147e-003
774	6.5105e-003
775	1.0036e-002
776	1.4275e-002
777	1.9214e-002
778	2.4842e-002
779	3.1152e-002
780	3.8134e-002
781	4.578e-002
782	5.4081e-002
783	6.3028e-002
784	7.261e-002
785	8.2818e-002
786	9.3641e-002
787	0.10507
788	0.11709
789	0.12969
790	0.14285
791	0.15658
792	0.17085
793	0.18565
794	0.20097
795	0.2168
796	0.23312
797	0.24993
798	0.2672
799	0.28494
800	0.30311
801	0.32172
802	0.34075
803	0.36019
804	0.38002
805	0.40024
806	0.42082
807	0.44177
808	0.46306
809	0.48469
810	0.50664
811	0.5289
812	0.55146
813	0.57431
814	0.59744
815	0.62083
816	0.64448
817	0.66837
818	0.6925
819	0.71684
820	0.7414
821	0.76617
822	0.79112
823	0.81626
824	0.84157
825	0.86704
826	0.89266
827	0.91843
828	0.94434
829	0.97038
830	0.99653
831	1.0228
832	1.0492
833	1.0756
834	1.1022
835	1.1288
836	1.1555
837	1.1823
838	1.2091
839	1.236
840	1.2629
841	1.2899
842	1.3169
843	1.344
844	1.3711
845	1.3982
846	1.4253
847	1.4524
848	1.4796
849	1.5068
850	1.5339
851	1.5611
852	1.5883
853	1.6155
854	1.6427
855	4.2232e-004
856	1.6678e-003
857	3.7032e-003
858	6.491e-003
859	1.0009e-002
860	1.4239e-002
861	1.917e-002
862	2.4792e-002
863	3.1096e-002
864	3.8073e-002
865	4.5716e-002
866	5.4014e-002
867	6.2959e-002
868	7.254e-002
869	8.2747e-002
870	9.3569e-002
871	0.105
872	0.11701
873	0.12961
874	0.14278
875	0.15651
876	0.17078
877	0.18558
878	0.2009
879	0.21673
880	0.23306
881	0.24986
882	0.26714
883	0.28487
884	0.30305
885	0.32167
886	0.3407
887	0.36014
888	0.37997
889	0.40019
890	0.42078
891	0.44172
892	0.46302
893	0.48464
894	0.5066
895	0.52886
896	0.55142
897	0.57427
898	0.5974
899	0.6208
900	0.64444
901	0.66834
902	0.69246
903	0.71681
904	0.74137
905	0.76614
906	0.79109
907	0.81623
908	0.84154
909	0.86702
910	0.89264
911	0.91841
912	0.94432
913	0.97036
914	0.99651
915	1.0228
916	1.0491
917	1.0756
918	1.1022
919	1.1288
920	1.1555
921	1.1823
922	1.2091
923	1.236
924	1.2629
925	1.2899
926	1.3169
927	1.344
928	1.371
929	1.3982
930	1.4253
931	1.4524
932	1.4796
933	1.5067
934	1.5339
935	1.5611
936	1.5883
937	1.6155
938	1.6427
939	4.1856e-004
940	1.6516e-003
941	3.6671e-003
942	6.4307e-003
943	9.9227e-003
944	1.4128e-002
945	1.9037e-002
946	2.4639e-002
947	3.0927e-002
948	3.7891e-002
949	4.5523e-002
950	5.3813e-002
951	6.2751e-002
952	7.2328e-002
953	8.2532e-002
954	9.3352e-002
955	0.10478
956	0.1168
957	0.1294
958	0.14257
959	0.1563
960	0.17057
961	0.18537
962	0.2007
963	0.21653
964	0.23286
965	0.24967
966	0.26696
967	0.28469
968	0.30288
969	0.32149
970	0.34053
971	0.35997
972	0.37981
973	0.40003
974	0.42063
975	0.44158
976	0.46288
977	0.48451
978	0.50647
979	0.52873
980	0.5513
981	0.57416
982	0.59729
983	0.62069
984	0.64434
985	0.66824
986	0.69237
987	0.71672
988	0.74129
989	0.76606
990	0.79102
991	0.81616
992	0.84147
993	0.86695
994	0.89258
995	0.91836
996	0.94427
997	0.9703
998	0.99646
999	1.0227
1000	1.0491
1001	1.0756
1002	1.1021
1003	1.1288
1004	1.1555
1005	1.1822
1006	1.2091
1007	1.236
1008	1.2629
1009	1.2899
1010	1.3169
1011	1.3439
1012	1.371
1013	1.3981
1014	1.4253
1015	1.4524
1016	1.4796
1017	1.5067
1018	1.5339
1019	1.5611
1020	1.5883
1021	1.6155
1022	1.6427
1023	4.1148e-004
1024	1.6215e-003
1025	3.6015e-003
1026	6.3229e-003
1027	9.7715e-003
1028	1.3936e-002
1029	1.8808e-002
1030	2.4379e-002
1031	3.064e-002
1032	3.7582e-002
1033	4.5197e-002
1034	5.3474e-002
1035	6.2402e-002
1036	7.1972e-002
1037	8.2171e-002
1038	9.299e-002
1039	0.10441
1040	0.11644
1041	0.12904
1042	0.14221
1043	0.15594
1044	0.17022
1045	0.18503
1046	0.20036
1047	0.2162
1048	0.23254
1049	0.24936
1050	0.26665
1051	0.28439
1052	0.30258
1053	0.32121
1054	0.34025
1055	0.3597
1056	0.37955
1057	0.39978
1058	0.42038
1059	0.44134
1060	0.46264
1061	0.48429
1062	0.50625
1063	0.52852
1064	0.5511
1065	0.57396
1066	0.5971
1067	0.62051
1068	0.64417
1069	0.66807
1070	0.69221
1071	0.71657
1072	0.74115
1073	0.76592
1074	0.79089
1075	0.81603
1076	0.84135
1077	0.86684
1078	0.89247
1079	0.91826
1080	0.94417
1081	0.97022
1082	0.99638
1083	1.0227
1084	1.049
1085	1.0755
1086	1.1021
1087	1.1287
1088	1.1554
1089	1.1822
1090	1.209
1091	1.2359
1092	1.2629
1093	1.2898
1094	1.3169
1095	1.3439
1096	1.371
1097	1.3981
1098	1.4252
1099	1.4524
1100	1.4796
1101	1.5067
1102	1.5339
1103	1.5611
1104	1.5883
1105	1.6155
1106	1.6427
1107	3.9939e-004
1108	1.5718e-003
1109	3.4966e-003
1110	6.1557e-003
1111	9.5423e-003
1112	1.365e-002
1113	1.8472e-002
1114	2.4e-002
1115	3.0226e-002
1116	3.714e-002
1117	4.4732e-002
1118	5.2991e-002
1119	6.1907e-002
1120	7.1468e-002
1121	8.1663e-002
1122	9.2478e-002
1123	0.1039
1124	0.11593
1125	0.12853
1126	0.14171
1127	0.15545
1128	0.16973
1129	0.18455
1130	0.19989
1131	0.21574
1132	0.23209
1133	0.24891
1134	0.26621
1135	0.28397
1136	0.30217
1137	0.32081
1138	0.33986
1139	0.35932
1140	0.37918
1141	0.39942
1142	0.42003
1143	0.441
1144	0.46232
1145	0.48397
1146	0.50595
1147	0.52823
1148	0.55082
1149	0.57369
1150	0.59684
1151	0.62026
1152	0.64393
1153	0.66784
1154	0.69199
1155	0.71636
1156	0.74094
1157	0.76573
1158	0.7907
1159	0.81586
1160	0.84119
1161	0.86668
1162	0.89233
1163	0.91812
1164	0.94404
1165	0.97009
1166	0.99627
1167	1.0225
1168	1.0489
1169	1.0754
1170	1.102
1171	1.1286
1172	1.1553
1173	1.1821
1174	1.209
1175	1.2359
1176	1.2628
1177	1.2898
1178	1.3168
1179	1.3439
1180	1.371
1181	1.3981
1182	1.4252
1183	1.4524
1184	1.4795
1185	1.5067
1186	1.5339
1187	1.5611
1188	1.5883
1189	1.6155
1190	1.6427
1191	3.7864e-004
1192	1.4914e-003
1193	3.336e-003
1194	5.9103e-003
1195	9.2166e-003
1196	1.3253e-002
1197	1.8013e-002
1198	2.3489e-002
1199	2.9673e-002
1200	3.6553e-002
1201	4.4119e-002
1202	5.2359e-002
1203	6.1261e-002
1204	7.0812e-002
1205	8.1001e-002
1206	9.1815e-002
1207	0.10324
1208	0.11527
1209	0.12788
1210	0.14106
1211	0.15481
1212	0.1691
1213	0.18393
1214	0.19928
1215	0.21514
1216	0.2315
1217	0.24834
1218	0.26566
1219	0.28343
1220	0.30164
1221	0.32029
1222	0.33936
1223	0.35883
1224	0.37871
1225	0.39896
1226	0.41959
1227	0.44057
1228	0.4619
1229	0.48357
1230	0.50556
1231	0.52786
1232	0.55046
1233	0.57334
1234	0.59651
1235	0.61994
1236	0.64362
1237	0.66755
1238	0.69171
1239	0.71609
1240	0.74069
1241	0.76548
1242	0.79047
1243	0.81564
1244	0.84098
1245	0.86648
1246	0.89214
1247	0.91794
1248	0.94388
1249	0.96994
1250	0.99612
1251	1.0224
1252	1.0488
1253	1.0753
1254	1.1019
1255	1.1285
1256	1.1552
1257	1.182
1258	1.2089
1259	1.2358
1260	1.2627
1261	1.2897
1262	1.3168
1263	1.3438
1264	1.3709
1265	1.398
1266	1.4252
1267	1.4523
1268	1.4795
1269	1.5067
1270	1.5339
1271	1.5611
1272	1.5882
1273	1.6154
1274	1.6426
1275	3.404e-004
1276	1.3593e-003
1277	3.0931e-003
1278	5.5598e-003
1279	8.7694e-003
1280	1.2722e-002
1281	1.7412e-002
1282	2.2831e-002
1283	2.8968e-002
1284	3.5812e-002
1285	4.3349e-002
1286	5.1568e-002
1287	6.0456e-002
1288	6.9998e-002
1289	8.0182e-002
1290	9.0995e-002
1291	0.10242
1292	0.11445
1293	0.12707
1294	0.14027
1295	0.15402
1296	0.16833
1297	0.18317
1298	0.19854
1299	0.21441
1300	0.23079
1301	0.24764
1302	0.26497
1303	0.28276
1304	0.30099
1305	0.31966
1306	0.33874
1307	0.35824
1308	0.37813
1309	0.3984
1310	0.41904
1311	0.44005
1312	0.46139
1313	0.48308
1314	0.50508
1315	0.5274
1316	0.55002
1317	0.57292
1318	0.5961
1319	0.61955
1320	0.64325
1321	0.66719
1322	0.69137
1323	0.71576
1324	0.74037
1325	0.76518
1326	0.79019
1327	0.81537
1328	0.84072
1329	0.86624
1330	0.89191
1331	0.91772
1332	0.94367
1333	0.96975
1334	0.99594
1335	1.0222
1336	1.0486
1337	1.0751
1338	1.1017
1339	1.1284
1340	1.1551
1341	1.1819
1342	1.2088
1343	1.2357
1344	1.2627
1345	1.2897
1346	1.3167
1347	1.3438
1348	1.3709
1349	1.398
1350	1.4251
1351	1.4523
1352	1.4795
1353	1.5066
1354	1.5338
1355	1.561
1356	1.5882
1357	1.6154
1358	1.6426
1359	2.5905e-004
1360	1.1373e-003
1361	2.7287e-003
1362	5.0689e-003
1363	8.1702e-003
1364	1.2032e-002
1365	1.6647e-002
1366	2.2006e-002
1367	2.8095e-002
1368	3.4901e-002
1369	4.2411e-002
1370	5.061e-002
1371	5.9484e-002
1372	6.9018e-002
1373	7.92e-002
1374	9.0014e-002
1375	0.10145
1376	0.11348
1377	0.12611
1378	0.13932
1379	0.15309
1380	0.16741
1381	0.18227
1382	0.19765
1383	0.21355
1384	0.22994
1385	0.24682
1386	0.26417
1387	0.28197
1388	0.30023
1389	0.31891
1390	0.33802
1391	0.35753
1392	0.37744
1393	0.39774
1394	0.4184
1395	0.43942
1396	0.46079
1397	0.4825
1398	0.50452
1399	0.52686
1400	0.5495
1401	0.57242
1402	0.59562
1403	0.61908
1404	0.6428
1405	0.66677
1406	0.69096
1407	0.71538
1408	0.74
1409	0.76483
1410	0.78985
1411	0.81505
1412	0.84042
1413	0.86596
1414	0.89164
1415	0.91747
1416	0.94343
1417	0.96952
1418	0.99573
1419	1.022
1420	1.0485
1421	1.075
1422	1.1016
1423	1.1282
1424	1.155
1425	1.1818
1426	1.2087
1427	1.2356
1428	1.2626
1429	1.2896
1430	1.3166
1431	1.3437
1432	1.3708
1433	1.3979
1434	1.4251
1435	1.4523
1436	1.4794
1437	1.5066
1438	1.5338
1439	1.561
1440	1.5882
1441	1.6154
1442	1.6426
1443	7.2877e-005
1444	7.6521e-004
1445	2.1934e-003
1446	4.397e-003
1447	7.3851e-003
1448	1.1154e-002
1449	1.5695e-002
1450	2.0994e-002
1451	2.7037e-002
1452	3.3808e-002
1453	4.1292e-002
1454	4.9473e-002
1455	5.8336e-002
1456	6.7866e-002
1457	7.8048e-002
1458	8.8866e-002
1459	0.10031
1460	0.11236
1461	0.125
1462	0.13822
1463	0.15201
1464	0.16635
1465	0.18123
1466	0.19663
1467	0.21255
1468	0.22896
1469	0.24586
1470	0.26323
1471	0.28106
1472	0.29934
1473	0.31805
1474	0.33718
1475	0.35672
1476	0.37665
1477	0.39697
1478	0.41766
1479	0.43871
1480	0.4601
1481	0.48183
1482	0.50388
1483	0.52624
1484	0.5489
1485	0.57184
1486	0.59506
1487	0.61855
1488	0.64229
1489	0.66628
1490	0.69049
1491	0.71493
1492	0.73958
1493	0.76443
1494	0.78947
1495	0.81469
1496	0.84008
1497	0.86563
1498	0.89133
1499	0.91718
1500	0.94316
1501	0.96927
1502	0.99549
1503	1.0218
1504	1.0483
1505	1.0748
1506	1.1014
1507	1.1281
1508	1.1548
1509	1.1817
1510	1.2085
1511	1.2355
1512	1.2625
1513	1.2895
1514	1.3165
1515	1.3436
1516	1.3707
1517	1.3979
1518	1.425
1519	1.4522
1520	1.4794
1521	1.5066
1522	1.5338
1523	1.561
1524	1.5882
1525	1.6154
1526	1.6426
1527	0.
1528	0.
1529	0.
1530	0.
1531	0.
1532	0.
1533	0.
1534	0.
1535	0.
1536	0.
1537	0.
1538	0.
1539	0.
1540	0.
1541	0.
1542	0.
1543	1.6698
1544	1.6698
1545	1.6698
1546	1.6699
1547	1.6699
1548	1.6699
1549	1.6699
1550	1.6699
1551	1.6699
1552	1.6699
1553	1.6699
1554	1.6699
1555	1.6698
1556	1.6698
1557	1.6698
1558	1.6698
1559	0.
1560	0.
1561	0.
1562	0.
1563	0.
1564	0.
1565	0.
1566	0.
1567	0.
1568	0.
1569	0.
1570	0.
1571	0.
1572	0.
1573	0.
1574	0.
1575	0.
1576	0.
1577	0.
1578	0.
1579	0.
1580	0.
1581	0.
1582	0.
1583	0.
1584	0.
1585	0.
1586	0.
1587	0.
1588	0.
1589	0.
1590	0.
1591	0.
1592	0.
1593	0.
1594	0.
1595	0.
1596	0.
1597	0.
1598	0.
1599	0.
1600	0.
1601	0.
1602	0.
1603	0.
1604	0.
1605	0.
1606	0.
1607	0.
1608	0.
1609	0.
1610	0.
